missing,correlation,pvalue,correlation_20,pvalue_20,correlation_10,pvalue_10,correlation_5,pvalue_5
0,1.0000000000000002,0.0,1.0,0.0,0.99999999999999978,0.0,1.0000000000000002,2.4034093344210247e-293
2,0.97833885199756032,0.0,0.92915871271491102,0.0,0.90552620029940378,0.0,0.88952715766241497,1.4669583531792593e-232
4,0.95848919435686142,0.0,0.87087627452611693,0.0,0.82384595499631108,0.0,0.81937845859308256,1.2057278090604755e-197
6,0.9428644316661865,0.0,0.84368673163847208,0.0,0.80867933068928188,0.0,0.8200854212540184,5.5417194624062213e-198
8,0.92799483955160111,0.0,0.81288575748530201,0.0,0.74245997997774715,0.0,0.71128968354445121,1.909144127558635e-149
10,0.91423369844511415,0.0,0.78233160540638258,0.0,0.70963310410182978,1.1425945060178308e-287,0.66796863089875158,4.9318297916751023e-132
12,0.90048379672141943,0.0,0.77400814033477028,0.0,0.72007625401910214,3.9185840343560216e-296,0.70073134698320394,4.2177194903288864e-145
14,0.88670309782526013,0.0,0.77270316436838737,0.0,0.70675798881126228,2.3262647188409984e-285,0.67002080017753274,7.8122374061720636e-133
16,0.87714995681250341,0.0,0.77607720869036023,0.0,0.73963482360387567,0.0,0.66211449762230024,9.1696383908903651e-130
18,0.86724644453880095,0.0,0.77270133068797675,0.0,0.7216680288456343,1.9591205407556668e-297,0.64860140392730548,1.3324809213323256e-124
20,0.85631676343682106,0.0,0.75379212866083611,0.0,0.6969648710245282,1.4470134581577021e-277,0.65219251242727849,5.7959570189844987e-126
22,0.84548498162647967,0.0,0.73280454828956365,0.0,0.68822233533748289,1.0628053890214577e-270,0.63408132117163918,3.5763353526016715e-119
24,0.83697290537673286,0.0,0.73312706087024127,0.0,0.67642802843247452,1.4192056780543196e-261,0.63675168449843467,3.666328434412764e-120
26,0.82529696858345558,0.0,0.70755561060814831,0.0,0.67298911584681853,6.0698420952540956e-259,0.62963125952428534,1.558520285576353e-117
28,0.81437043395903419,0.0,0.68984501672033127,0.0,0.67556898093029094,6.4649037008891378e-261,0.59926513626842393,1.1794914820562626e-106
30,0.80499909817560089,0.0,0.68539685371220438,0.0,0.68097938212045117,4.4585448409792576e-265,0.5997598673734551,7.9203343616499843e-107
32,0.79481777805050269,0.0,0.68450343958415694,0.0,0.67706029469938855,4.6434172400727238e-262,0.60587175671087012,5.6284029123767957e-109
34,0.78619454572996972,0.0,0.67542258746681172,0.0,0.66384516655109782,5.1777380743423139e-252,0.61932193303840954,8.8344952113736926e-114
36,0.77722427189395016,0.0,0.67580371898254277,0.0,0.64432944656285096,1.5493582367985201e-237,0.54651173846739298,4.9893528414108688e-89
38,0.76834484203359221,0.0,0.67430356240033607,0.0,0.63984135878833726,2.8725462698706665e-234,0.58811745360754997,8.5327680908922696e-103
40,0.75715047910139899,0.0,0.66497027452527735,0.0,0.64303830755785396,1.3572622507646847e-236,0.60488137486970117,1.2588730993943389e-108
42,0.74503991675326364,0.0,0.66418646335661147,0.0,0.63093010667255112,1.1866350843021196e-227,0.6071886675753877,1.9259455488455546e-109
44,0.73418451342563995,0.0,0.65739120808273976,0.0,0.63936296010419169,1.0120240563337768e-233,0.64266340493959073,2.2885707126335376e-122
46,0.7261366501286648,0.0,0.64275321636009186,0.0,0.6293049725274722,1.7166563251663438e-226,0.66607282365980769,2.6921179027663606e-131
48,0.71374294824699813,0.0,0.61497290211975275,0.0,0.61298179773481976,5.2962314769339697e-215,0.6509539762655514,1.7121865294244683e-125
0,1.0000000000000002,0.0,1.0,0.0,0.99999999999999978,0.0,1.0000000000000002,2.4034093344210247e-293
2,0.97839944573649229,0.0,0.92157345479697361,0.0,0.89727827681468031,0.0,0.86827078561389182,1.1177554147367617e-221
4,0.95854643396712846,0.0,0.86783660500228288,0.0,0.82684664708985955,0.0,0.77907522537838725,7.0371905457743394e-179
6,0.94241014314813187,0.0,0.82482011681420075,0.0,0.7830947757898522,0.0,0.68148530017698405,2.3836366234305379e-137
8,0.9269960191595652,0.0,0.80352265654270438,0.0,0.7549205464579648,0.0,0.72950894930201682,4.2871908929516681e-157
10,0.91218757499770475,0.0,0.76132691541710318,0.0,0.69367792882683599,5.6498246992569368e-275,0.64980712532846807,4.6597021278089699e-125
12,0.89648446141451743,0.0,0.74096704264323754,0.0,0.72122168748272364,4.5412597372609683e-297,0.65240072333809895,4.8300779087771001e-126
14,0.88577759460195804,0.0,0.73059988557701261,0.0,0.7156983492616944,1.4344973119640114e-292,0.64814270558743314,1.9862445520518122e-124
16,0.87538618298478343,0.0,0.75059794365830945,0.0,0.73355091537598938,3.0811328364289848e-307,0.66934767605306722,1.4306265983937907e-132
18,0.86567222169499458,0.0,0.75824682047295588,0.0,0.72455459011887935,8.4208590119134144e-300,0.66986652007435898,8.9747261021890157e-133
20,0.85571827231077857,0.0,0.75659939172927382,0.0,0.71338000347678232,1.0839813633770343e-290,0.65798479318022074,3.5583491723160887e-128
22,0.84495301985431215,0.0,0.7364230531800795,0.0,0.68082884807654853,5.826710517751848e-265,0.63070175786266947,6.3011883574098485e-118
24,0.83378473522459706,0.0,0.71577636069313133,0.0,0.67414177237595274,7.9940126587235777e-260,0.64427853592756512,5.671530479812785e-123
26,0.82401711824163393,0.0,0.70551279008176171,0.0,0.64643606255399033,4.4494139881262652e-239,0.62730442977941292,1.1098642622595208e-116
28,0.81327322755114306,0.0,0.69642419681010115,0.0,0.65828843433115636,7.5825291007880282e-248,0.65638149186832162,1.4636795541720976e-127
30,0.80061984025214761,0.0,0.66987269982584796,0.0,0.63755308575617897,1.3054339696499245e-232,0.63004301051930334,1.1003179116277979e-117
32,0.79460492549350836,0.0,0.66936468873346866,0.0,0.69028886519399124,2.5781414238655239e-272,0.64292330139314224,1.8288365781691109e-122
34,0.78427705201161513,0.0,0.66679283606903383,0.0,0.71662041660415499,2.5582915343585406e-293,0.6552795770615264,3.8610460438483878e-127
36,0.77517314551335603,0.0,0.67086330075359846,0.0,0.69956990082653436,1.2527658577516561e-279,0.63836962957648224,9.1804985526873705e-121
38,0.76337784160241939,0.0,0.66103598507526584,0.0,0.64668246287993369,2.9351635030670335e-239,0.58290065265372704,5.1569325082639638e-101
40,0.75491650036282942,0.0,0.65802149132276211,0.0,0.6363004933790849,1.0484494421816898e-231,0.60325504345780745,4.7079090650666328e-108
42,0.74425313353393563,0.0,0.64025647005081732,0.0,0.62338499232408928,1.7632447831885106e-222,0.59316542398331618,1.5573715907396035e-104
44,0.73413643698479703,0.0,0.62255036858452828,0.0,0.59748455997241945,1.5082051457313322e-204,0.61803182316022287,2.5795586962446399e-113
46,0.72394681507537817,0.0,0.62635738168960731,0.0,0.61490057609606641,2.4492775827186208e-216,0.65877976937598126,1.7625965998606617e-128
48,0.7144580214723083,0.0,0.6123619170246305,0.0,0.5989750559988174,2.2008031198592451e-205,0.63993153950166382,2.4037323010354411e-121
0,1.0000000000000002,0.0,1.0,0.0,0.99999999999999978,0.0,1.0000000000000002,2.4034093344210247e-293
2,0.98003466620390423,0.0,0.930644019027414,0.0,0.90904185708848306,0.0,0.86326757773040319,3.728086026749044e-219
4,0.96041554262659456,0.0,0.87160049317826582,0.0,0.84919049945113434,0.0,0.82290189360738097,2.4875682693100077e-199
6,0.94477392854879305,0.0,0.83359120204336157,0.0,0.80212350881295102,0.0,0.72223206364269854,5.1313478505292719e-154
8,0.92971881462357131,0.0,0.8146012253034759,0.0,0.77941157105747749,0.0,0.6803530305006753,6.7082116178886513e-137
10,0.91592917385735206,0.0,0.7954704529030644,0.0,0.75783370100193137,0.0,0.66248065372119913,6.6221063242887919e-130
12,0.902503308988158,0.0,0.7861728669022604,0.0,0.76719816381400618,0.0,0.68862508538269129,3.3612332631798584e-140
14,0.89003529568144102,0.0,0.77551792535936026,0.0,0.77207069881575152,0.0,0.69616018575003025,3.0605158717483863e-143
16,0.87822653304379772,0.0,0.77506940660451851,0.0,0.74879821095196986,0.0,0.69932754027956501,1.5768735279120814e-144
18,0.86620290761788732,0.0,0.76915057154636912,0.0,0.74472482279863084,0.0,0.68443169231920731,1.6010579007160546e-138
20,0.85464235105742903,0.0,0.75740500740978933,0.0,0.71491519323667707,6.1928817852916552e-292,0.61180176498629502,4.4179807038754371e-111
22,0.84436151019726646,0.0,0.74910474294775009,0.0,0.7301727110159123,1.9587763426720264e-304,0.62035912269770144,3.726915419688169e-114
24,0.83639054672994895,0.0,0.73696950098752934,0.0,0.70761697520171674,4.7627595138097557e-286,0.60131090861531611,2.2677708448190194e-107
26,0.82558362716205935,0.0,0.72258540051127551,0.0,0.69396872930043685,3.3361759344243555e-275,0.62345001128650468,2.8224178579459071e-115
28,0.81446900452279791,0.0,0.71632751286500529,0.0,0.70598442570129949,9.6882615104681065e-285,0.64034887507313742,1.6793592790089658e-121
30,0.80503324344808014,0.0,0.69408765804252626,0.0,0.70270612113903574,4.0224460213391299e-282,0.65099894608070963,1.6462130677076377e-125
32,0.79467227583113953,0.0,0.68318031257374034,0.0,0.70410085698425839,3.1049908769494827e-283,0.65473804584527417,6.2154469289871413e-127
34,0.78559787112543034,0.0,0.68453910909092675,0.0,0.71370084143774404,5.9626858051926461e-291,0.69751927192015162,8.5869551251231987e-144
36,0.77653718796996429,0.0,0.67094726585330289,0.0,0.67896640778775486,1.5897475863110957e-263,0.58453825918636682,1.428645995226295e-101
38,0.76716139562913321,0.0,0.65127274153250514,0.0,0.63086767683117073,8.4005916791849452e-228,0.52973860732983091,9.2023579249905161e-84
40,0.75936503684549628,0.0,0.66897485808939805,0.0,0.64909044890958378,4.9932519552717364e-241,0.56903576381051735,2.3432305091653988e-96
42,0.75030271003555615,0.0,0.66420223084650853,0.0,0.64618953795807899,6.7452130852803998e-239,0.60109355213431603,2.7026968390807681e-107
44,0.74246557767453591,0.0,0.67339469644506744,0.0,0.64814429571844034,3.9790486232955831e-240,0.70472841441244094,9.7296953674701484e-147
46,0.72721032242230355,0.0,0.63977040284420994,0.0,0.62837117103338336,7.9447110496312183e-226,0.64695056857709088,5.5981775133128546e-124
48,0.71541231978940811,0.0,0.61147764210968913,0.0,0.58438844060510198,1.329154520832232e-195,0.57131882827283686,4.0792079338580991e-97
0,1.0000000000000002,0.0,1.0,0.0,0.99999999999999978,0.0,1.0000000000000002,2.4034093344210247e-293
2,0.97808468835892826,0.0,0.93538868506464234,0.0,0.92409268354606067,0.0,0.92733067949719306,1.4600785420987551e-252
4,0.95938977211642673,0.0,0.87097011884679998,0.0,0.83722743743702088,0.0,0.76285026016650503,1.3664512488356242e-171
6,0.94192779541296212,0.0,0.82817292034042589,0.0,0.77702901611458608,0.0,0.70844533195307513,2.8676409433952092e-148
8,0.92647606910295255,0.0,0.7991690409458978,0.0,0.74571662950483419,0.0,0.63991939872325632,2.4289317705612153e-121
10,0.91298692801660164,0.0,0.77823529535620317,0.0,0.72921999112815628,1.2028940194388323e-303,0.62983131011220883,1.3160322059261829e-117
12,0.89871063845539967,0.0,0.76658629842358927,0.0,0.73454348757977739,4.5983937626584373e-308,0.80005201329780495,1.5773352272377698e-188
14,0.88800316432231574,0.0,0.76165610809695761,0.0,0.76819903687832958,0.0,0.76289826080099266,1.3009424322830958e-171
16,0.8758349421391024,0.0,0.76773231231930017,0.0,0.76879944469876171,0.0,0.73543642097845674,1.2652121963032448e-159
18,0.86357369002405315,0.0,0.73602801269825946,0.0,0.7288844066495993,2.2784098973168284e-303,0.69787386100903659,6.1610688581563811e-144
20,0.85291720941517346,0.0,0.74392502348597389,0.0,0.72259695363648568,3.3998592150397009e-298,0.70447444712237373,1.2370476273624967e-146
22,0.84212741230694965,0.0,0.73395198716415344,0.0,0.69820700512752798,1.5063908403743512e-278,0.66686871418737326,1.3210149831290256e-131
24,0.83010835403806515,0.0,0.72145217120754834,0.0,0.67254704513947228,1.3195842788382815e-258,0.62607184118068016,3.1305446846364e-116
26,0.81984416526775983,0.0,0.72344137435329592,0.0,0.66736820235629135,1.1348696247512919e-254,0.63456913011934957,2.3607171571006953e-119
28,0.81334655430025582,0.0,0.7137657119830082,0.0,0.66454283504640232,1.5440249238232315e-252,0.62960320187914365,1.5959217591256131e-117
30,0.80322072806896749,0.0,0.70161654213661606,0.0,0.68514973586319772,2.6241024639205027e-268,0.66720968327042407,9.7350009691487778e-132
32,0.79518351499248707,0.0,0.69414749441442225,0.0,0.6880736946859668,1.3881650499042696e-270,0.64070779045515536,1.2334502378406816e-121
34,0.7855421443252254,0.0,0.66250691626393832,0.0,0.63929995767810599,7.0951379269972098e-234,0.57996528593440222,5.1019822702310357e-100
36,0.77371205724920666,0.0,0.65254191414024365,0.0,0.63897129579860834,1.2279676250957795e-233,0.58413555380508031,1.9595493486481878e-101
38,0.76202266663337637,0.0,0.62775444789869062,0.0,0.59571590037052435,2.3729903991918523e-203,0.5410731803822153,2.6506188359271156e-87
40,0.75194162792355579,0.0,0.63756971915482652,0.0,0.59675440119203005,4.7095694943074968e-204,0.56293790343210515,2.4145661589003487e-94
42,0.74230944395617549,0.0,0.65003279714860929,0.0,0.59450895049071439,1.5488001384546375e-202,0.57858093043627878,1.4976871019783998e-99
44,0.73477645530238322,0.0,0.63672060374559336,0.0,0.58400812939852365,2.3734125975136077e-195,0.59442321822727984,5.7129582781372364e-105
46,0.72436281665458202,0.0,0.62767102239048211,0.0,0.56931556753197465,9.5031332079944079e-186,0.59772335592221393,4.0716332099642929e-106
48,0.71497795133709541,0.0,0.61378057915732953,0.0,0.56096349118947586,2.1264088493880924e-180,0.60966918855837338,2.538885157062942e-110
0,1.0000000000000002,0.0,1.0,0.0,0.99999999999999978,0.0,1.0000000000000002,2.4034093344210247e-293
2,0.97865317675713648,0.0,0.9303487623423079,0.0,0.90533013221470104,0.0,0.87588078008487202,1.5229775489509324e-225
4,0.96079284911620555,0.0,0.8767620763040862,0.0,0.85180629801106655,0.0,0.82739914564680583,1.7138819252666726e-201
6,0.94322227427122096,0.0,0.83676932116832314,0.0,0.79633244783510215,0.0,0.77726390141073509,4.6625791717218241e-178
8,0.92818707998702432,0.0,0.77802680401454027,0.0,0.76620623065456417,0.0,0.73749906634533235,1.6480882155296658e-160
10,0.91396569627318736,0.0,0.76737652732868278,0.0,0.77910729537939449,0.0,0.71164634694419682,1.3581825807668885e-149
12,0.89863820787262194,0.0,0.7575860509403175,0.0,0.78165839383895652,0.0,0.71471928532092077,7.1744365712312286e-151
14,0.88539136260769691,0.0,0.74401185843302764,0.0,0.7470086442140943,0.0,0.69269316975882878,7.7440269716526481e-142
16,0.87501521416753925,0.0,0.73841522577824059,0.0,0.73774686718190996,0.0,0.71319410813811512,3.0928983599127397e-150
18,0.86367743045955092,0.0,0.75159862251864784,0.0,0.73947820199913994,0.0,0.74962341595388415,9.2011947415007559e-166
20,0.85033657875568469,0.0,0.7242092593901458,0.0,0.69755087089319245,4.9792175690583895e-278,0.70315977755351411,4.2818663606073448e-146
22,0.83978731224686665,0.0,0.72520351209594636,0.0,0.67474359825535735,2.7700365429592179e-260,0.6778404273773283,6.6241398801381095e-136
24,0.82742840972821896,0.0,0.69378183204408173,0.0,0.63367368371646038,8.1699448356273307e-230,0.63057995839532643,6.9856027036815321e-118
26,0.81775403802831914,0.0,0.66267681535471745,0.0,0.61392711673147582,7.6291554783886878e-216,0.61229065473561817,2.9563510720366037e-111
28,0.80832850964623415,0.0,0.64158046119978129,0.0,0.61037840052790593,2.219872881530591e-213,0.62647435676764973,2.2317734050504822e-116
30,0.79748826513784288,0.0,0.62631086091098143,0.0,0.64179911984294646,1.0851189449946166e-235,0.6649373262137066,7.4228956087073884e-131
32,0.78717095293661987,0.0,0.62723914846883944,0.0,0.65376186853230023,1.7675691944711584e-244,0.65549362252563736,3.1983883380804952e-127
34,0.77776558246928174,0.0,0.62278411622853436,0.0,0.63031132789389488,2.0998572715921873e-227,0.62737576153610219,1.0451543236823805e-116
36,0.76812494569635315,0.0,0.61290811353606678,0.0,0.62036494324042524,2.3787460779533184e-220,0.65197092480097529,7.0364715288829186e-126
38,0.75881085641225576,0.0,0.59651546433402991,0.0,0.58995383636576715,1.77776907425234e-199,0.6212125398705155,1.8300489896036776e-114
40,0.74996959857391843,0.0,0.609174915907438,0.0,0.58114852429928887,1.2538226251616111e-193,0.64408533594938033,6.702746146907077e-123
42,0.74214207870376347,0.0,0.61108999655285223,0.0,0.58408357326336768,1.4406848218344265e-195,0.63898173114980905,5.4320175075764221e-121
44,0.73298435491359959,0.0,0.6114941092711107,0.0,0.58088800004498298,2.722602700628279e-193,0.63674062989880631,3.7011352888547183e-120
46,0.72533071067281818,0.0,0.60203354150888355,0.0,0.58912441751235478,9.4246113413969164e-199,0.6481191501750676,2.0273677366295669e-124
48,0.71765101347969462,0.0,0.59010762953806006,0.0,0.5965668684442833,9.4181090244221358e-204,0.61945704240394406,7.8956823672147831e-114
0,1.0000000000000002,0.0,1.0,0.0,0.99999999999999978,0.0,1.0000000000000002,2.4034093344210247e-293
2,0.98115502080500294,0.0,0.92239861845500171,0.0,0.90624221278187445,0.0,0.85314657681913553,4.2761906176266219e-214
4,0.96069435892677824,0.0,0.85684721244819806,0.0,0.8220100485773465,0.0,0.79050422570527479,4.1849271376561682e-184
6,0.94425711176147076,0.0,0.81122562155271283,0.0,0.77153231130617372,0.0,0.68252620889804227,9.1933728729787708e-138
8,0.9297698295956367,0.0,0.7942874975361125,0.0,0.76575808379867905,0.0,0.64664826058167135,7.2783378076310295e-124
10,0.91570150904136616,0.0,0.78441248537809083,0.0,0.7452266216746285,0.0,0.68728728650618509,1.1558562164175173e-139
12,0.90081359039677589,0.0,0.76062657039357662,0.0,0.7308551682871417,5.3298516969595313e-305,0.68352750609352109,3.6716511484865702e-138
14,0.88904808300320548,0.0,0.75835276589729805,0.0,0.74237952179969913,0.0,0.66135390112048376,1.8019165299513971e-129
16,0.87826803866284742,0.0,0.77112100022710828,0.0,0.74189708610195537,0.0,0.67522596462805162,7.1133766049737313e-135
18,0.86728970349490886,0.0,0.75492736867743493,0.0,0.71849675604023311,7.608987361695842e-295,0.64481865394046423,3.5543025971353221e-123
20,0.85621582452384692,0.0,0.7494906571140022,0.0,0.70126769446597093,5.6164337546010455e-281,0.61949005716583938,7.6818430520355575e-114
22,0.84305867277042068,0.0,0.72167693150013512,0.0,0.66040816181687034,1.9717757755598929e-249,0.61290266296838447,1.7871286947977903e-111
24,0.82985581893650062,0.0,0.69622783250591458,0.0,0.63211575761389982,1.0726417196944766e-228,0.54929607692469651,6.4284819841745434e-90
26,0.82024468990660493,0.0,0.68370587339325162,0.0,0.63290071479125598,2.9334446145004859e-229,0.61898487982876638,1.1691106428608649e-113
28,0.81153834037617756,0.0,0.66636661346551995,0.0,0.61821306212328919,7.7226697922607204e-219,0.62211834887181827,8.5931100489430241e-115
30,0.80509481723725862,0.0,0.66779244486524325,0.0,0.61080318466064021,1.1275975267439695e-213,0.63261480746205723,1.2443147530188679e-118
32,0.79622272415917428,0.0,0.6422503884486358,0.0,0.58310661289942944,9.366968740303894e-195,0.55268807525864083,5.2224037559606949e-91
34,0.78737164578593388,0.0,0.65657105088433387,0.0,0.6015699898816721,3.7787662570968327e-207,0.53939113134861416,8.9841419607429165e-87
36,0.77758105320058823,0.0,0.65040996778607274,0.0,0.61257452262817436,1.0157339505323281e-214,0.5430758890311258,6.166153457855501e-88
38,0.76950182598006212,0.0,0.63747293711927633,0.0,0.63504706605049521,1.322478133558523e-230,0.53638259734914262,7.8990894827184044e-86
40,0.75793881326057388,0.0,0.61953311564578528,0.0,0.60517528076720417,1.2947128443889048e-209,0.53649727407816761,7.2725536008093496e-86
42,0.74685589141172892,0.0,0.5966943418295515,0.0,0.57706033704657278,8.843121695806959e-191,0.5442504078134377,2.6151920035144256e-88
44,0.73881806877685308,0.0,0.61055537433995843,0.0,0.57637001716939207,5.2820402183617491e-190,0.55970360958987031,3.9372971544513007e-93
46,0.72909908539368073,0.0,0.61183816110031575,0.0,0.56894819912661576,4.8962057745432757e-185,0.5699359755308252,1.6977448216535414e-96
48,0.71897272438046067,0.0,0.59073115885970984,0.0,0.52959138913164772,1.3478545778140562e-160,0.48869799791509355,1.892265718552924e-71
