missing,correlation,pvalue,correlation_20,pvalue_20,correlation_10,pvalue_10,correlation_5,pvalue_5
0,0.99999999999999978,0.0,1.0,0.0,1.0,0.0,1.0,5.4543296811399257e-198
2,0.98188072293918471,0.0,0.81528680859522262,0.0,0.81528680859522262,0.0,0.48329779586669713,1.5026644490015084e-46
4,0.9571567053288631,0.0,0.9616398950553694,0.0,0.9616398950553694,0.0,0.22830563908879623,1.6643859084543489e-11
6,0.95274233359575911,0.0,0.95703275963618617,0.0,0.95703275963618617,0.0,0.38469288117321659,3.0159474409375113e-29
8,0.94902142145672863,0.0,0.95034720694026753,0.0,0.95034720694026753,0.0,0.37797602830738075,6.1119155173086381e-28
10,0.94344970772334569,0.0,0.93518774483846301,0.0,0.93518774483846301,0.0,0.44281336261607535,3.8421145494004533e-37
12,0.93743639601808137,0.0,0.90153505731719319,0.0,0.90153505731719319,0.0,0.23594411604620738,2.5026278584469229e-11
14,0.93080173363700336,0.0,0.85634297943990512,0.0,0.85634297943990512,0.0,0.22286896452001037,6.1281574691451783e-10
16,0.9243621084798852,0.0,0.80505660038706173,0.0,0.80505660038706173,0.0,0.27206513365218937,8.3855244943196739e-14
18,0.91667832184158771,0.0,0.7500200823217914,0.0,0.7500200823217914,0.0,0.25816393923320013,3.2763123537259878e-12
20,0.90945403829059435,0.0,0.71535485012885369,0.0,0.71535485012885369,0.0,0.25769678284564018,6.5918497785335523e-12
22,0.89592701959565069,0.0,0.59441249565258869,0.0,0.59441249565258869,0.0,0.2453938750648306,2.9028803787351995e-11
24,0.88138220227416297,0.0,0.83017590559671439,0.0,0.83017590559671439,0.0,0.2909794361202237,7.3931075494066847e-15
26,0.87522844124415444,0.0,0.80907823480012564,0.0,0.80907823480012564,0.0,0.32268832218926541,3.9832891947163085e-18
28,0.86971098622698795,0.0,0.78836179674436124,0.0,0.78836179674436124,0.0,0.31045734929238555,1.8318505206332031e-16
30,0.86097595831948126,0.0,0.74814825587702127,0.0,0.74814825587702127,0.0,0.74814825587702127,0.0
32,0.85090866867708703,0.0,0.67765310935788803,0.0,0.67765310935788803,0.0,0.67765310935788803,0.0
34,0.84563783688934824,0.0,0.63058117706114658,1.5436437945600782e-306,0.63058117706114658,1.5436437945600782e-306,0.63058117706114658,1.5436437945600782e-306
36,0.83910262200972863,0.0,0.58663453961945489,2.2983973160980718e-259,0.58663453961945489,2.2983973160980718e-259,0.58663453961945489,2.2983973160980718e-259
38,0.82825128375240398,0.0,0.53790000050818887,4.8392959063469463e-211,0.53790000050818887,4.8392959063469463e-211,0.53790000050818887,4.8392959063469463e-211
40,0.82444007711404488,0.0,0.53775500736535953,5.46689279604066e-205,0.53775500736535953,5.46689279604066e-205,0.53775500736535953,5.46689279604066e-205
42,0.81467638832667055,0.0,0.49677846873247683,7.6186527975431231e-169,0.49677846873247683,7.6186527975431231e-169,0.49677846873247683,7.6186527975431231e-169
44,0.80784662863864487,0.0,0.77904928950513763,0.0,0.77904928950513763,0.0,0.77904928950513763,0.0
46,0.80007970996618627,0.0,0.75352052068768582,0.0,0.75352052068768582,0.0,0.75352052068768582,0.0
48,0.78886837904503815,0.0,0.56431346704464624,5.787480895053802e-262,0.71903296498228431,0.0,0.71903296498228431,0.0
0,0.99999999999999978,0.0,1.0,0.0,1.0,0.0,1.0,5.4543296811399257e-198
2,0.9793171830645977,0.0,0.79453278667748439,0.0,0.79453278667748439,0.0,0.99840922911505059,1.9266589145169633e-194
4,0.9580258603652122,0.0,0.9710612825707019,0.0,0.9710612825707019,0.0,0.70086629382080434,5.565805052020321e-93
6,0.95339720191152966,0.0,0.95718364292075975,0.0,0.95718364292075975,0.0,0.49480172232382852,1.1556242589882347e-46
8,0.94771301224477222,0.0,0.94442184192381518,0.0,0.94442184192381518,0.0,0.44378519899937441,4.1929267330732139e-37
10,0.94201284252803241,0.0,0.93906691295164701,0.0,0.93906691295164701,0.0,0.33905239998186454,4.0437380084132314e-22
12,0.93601663344300845,0.0,0.92178492727024308,0.0,0.92178492727024308,0.0,0.38410207709141797,1.7189863692566987e-27
14,0.92740600102547388,0.0,0.87277445396514686,0.0,0.87277445396514686,0.0,0.34731546112182932,3.5262297462654014e-22
16,0.92159081065539861,0.0,0.84405954329608812,0.0,0.84405954329608812,0.0,0.35847731223247531,3.3183374732662555e-23
18,0.9189283967552343,0.0,0.82201642323516433,0.0,0.82201642323516433,0.0,0.39695818728650278,2.1853147143449044e-27
20,0.91103663611318952,0.0,0.74906686873835615,0.0,0.74906686873835615,0.0,0.33425082820433732,7.8520132413209956e-20
22,0.89313636589645251,0.0,0.67443953912476229,0.0,0.67443953912476229,0.0,0.31629756284943789,1.5873667755320457e-17
24,0.88875165419174507,0.0,0.90104355174334838,0.0,0.90104355174334838,0.0,0.31212009441565053,1.2663850546917071e-16
26,0.88453496379004815,0.0,0.88883552410037747,0.0,0.88883552410037747,0.0,0.33390122672961864,2.0843046437508225e-19
28,0.87929319362211544,0.0,0.86765047010934271,0.0,0.86765047010934271,0.0,0.26801799034260726,1.0043074007257291e-12
30,0.87573924267663161,0.0,0.855722647752721,0.0,0.855722647752721,0.0,0.36710665927030001,2.1421148315111637e-22
32,0.87212499374626506,0.0,0.84181310436243117,0.0,0.84181310436243117,0.0,0.84181310436243117,0.0
34,0.86811389574478104,0.0,0.81945603669061295,0.0,0.81945603669061295,0.0,0.81945603669061295,0.0
36,0.86331819962052714,0.0,0.78956300575995497,0.0,0.78956300575995497,0.0,0.78956300575995497,0.0
38,0.85525438977319401,0.0,0.75310129673267978,0.0,0.75310129673267978,0.0,0.75310129673267978,0.0
40,0.84634086998934444,0.0,0.71700311549774098,0.0,0.71700311549774098,0.0,0.71700311549774098,0.0
42,0.83621177379974765,0.0,0.6697761362940029,2.1921838080837944e-307,0.6697761362940029,2.1921838080837944e-307,0.6697761362940029,2.1921838080837944e-307
44,0.82085968332506809,0.0,0.61503086575248334,1.9758143300853812e-248,0.61503086575248334,1.9758143300853812e-248,0.61503086575248334,1.9758143300853812e-248
46,0.81216479067936465,0.0,0.82684122083971112,0.0,0.82684122083971112,0.0,0.82684122083971112,0.0
48,0.80167308083374533,0.0,0.61942400596989422,0.0,0.77416245262763161,0.0,0.77416245262763161,0.0
0,0.99999999999999978,0.0,1.0,0.0,1.0,0.0,1.0,5.4543296811399257e-198
2,0.97082961056864425,0.0,0.72496466866953946,0.0,0.72496466866953946,0.0,0.29252749318850546,4.7126031610861387e-18
4,0.95751109560808179,0.0,0.95734314619199334,0.0,0.95734314619199334,0.0,0.30384773530964865,4.4285898932976335e-19
6,0.95215709991388731,0.0,0.95040027113801095,0.0,0.95040027113801095,0.0,0.41260604892841407,2.1557131557370761e-33
8,0.94696294884762144,0.0,0.94418293216117,0.0,0.94418293216117,0.0,0.40107564738624835,5.1776271907553673e-31
10,0.94175108155575138,0.0,0.93661309315592278,0.0,0.93661309315592278,0.0,0.3903141358234225,6.2029967895097779e-29
12,0.93576119736565588,0.0,0.91615468115413368,0.0,0.91615468115413368,0.0,0.40392762955633249,3.8044525539092938e-30
14,0.93202511313440228,0.0,0.89760353964657946,0.0,0.89760353964657946,0.0,0.40734337701884099,2.6508204801625397e-30
16,0.92519799905382583,0.0,0.86156417218191816,0.0,0.86156417218191816,0.0,0.4190768045715359,1.522807393715231e-31
18,0.92101656464659687,0.0,0.84287762766775687,0.0,0.84287762766775687,0.0,0.47972196289995184,8.7172648943242373e-40
20,0.91365650394237308,0.0,0.7941531778840365,0.0,0.7941531778840365,0.0,0.40007668468897867,1.0289870586430989e-27
22,0.90346010428882462,0.0,0.70619395683868624,0.0,0.70619395683868624,0.0,0.3953715959295856,2.9453551353898267e-26
24,0.88960992613310164,0.0,0.91216287952780384,0.0,0.91216287952780384,0.0,0.39128158435493304,2.2553205925423365e-25
26,0.8837860322461486,0.0,0.8827158701651574,0.0,0.8827158701651574,0.0,0.41269273021720071,7.0209556233599934e-29
28,0.87794580071151396,0.0,0.84814558871402468,0.0,0.84814558871402468,0.0,0.41764016999783288,1.0428017218252176e-29
30,0.87196216174017405,0.0,0.80970584478421492,0.0,0.80970584478421492,0.0,0.45796234184363205,5.7365856886561279e-35
32,0.86581112955003159,0.0,0.76552522455656069,0.0,0.76552522455656069,0.0,0.76552522455656069,0.0
34,0.85969648344056626,0.0,0.73501375302973604,0.0,0.73501375302973604,0.0,0.73501375302973604,0.0
36,0.85097443047725407,0.0,0.71246050709367226,0.0,0.71246050709367226,0.0,0.71246050709367226,0.0
38,0.84405218127167303,0.0,0.69184908870776152,0.0,0.69184908870776152,0.0,0.69184908870776152,0.0
40,0.83225382185495822,0.0,0.64421164276132892,1.1589070674390523e-293,0.64421164276132892,1.1589070674390523e-293,0.64421164276132892,1.1589070674390523e-293
42,0.82301110775473996,0.0,0.61258597288503458,5.912538613601383e-259,0.61258597288503458,5.912538613601383e-259,0.61258597288503458,5.912538613601383e-259
44,0.81237587718037485,0.0,0.81666781419529721,0.0,0.81666781419529721,0.0,0.81666781419529721,0.0
46,0.80805243383837877,0.0,0.80727948774384684,0.0,0.80727948774384684,0.0,0.80727948774384684,0.0
48,0.79439522810879648,0.0,0.59772886498109146,1.9417906541450317e-296,0.76265281661004714,0.0,0.76265281661004714,0.0
0,0.99999999999999978,0.0,1.0,0.0,1.0,0.0,1.0,5.4543296811399257e-198
2,0.98014321888877476,0.0,0.80215720602251805,0.0,0.80215720602251805,0.0,0.60973112017233988,1.7839473818068631e-74
4,0.95721888506762576,0.0,0.96786203197922915,0.0,0.96786203197922915,0.0,0.52902049288153941,3.811298561549646e-55
6,0.95336690426442172,0.0,0.96531813631997077,0.0,0.96531813631997077,0.0,0.54510801696580902,1.0883800865815229e-56
8,0.94793417045712292,0.0,0.95260931913500579,0.0,0.95260931913500579,0.0,0.53819319977114499,6.9375319884353186e-54
10,0.94336183105355631,0.0,0.94124946172757362,0.0,0.94124946172757362,0.0,0.54325143864739045,1.9584212321971746e-54
12,0.93872501006906806,0.0,0.92977488767325978,0.0,0.92977488767325978,0.0,0.48131688669404354,7.3465754562583237e-42
14,0.93424468950933037,0.0,0.90397331408166215,0.0,0.90397331408166215,0.0,0.4372862610745612,3.4033547768701515e-34
16,0.92863891218041295,0.0,0.86669567396485292,0.0,0.86669567396485292,0.0,0.39672930089536146,1.3695560670909124e-27
18,0.91973544411777663,0.0,0.8070302810106742,0.0,0.8070302810106742,0.0,0.37795758763145465,3.3132794639833533e-24
20,0.91379136096408431,0.0,0.75680100305980769,0.0,0.75680100305980769,0.0,0.34347544680876402,7.3257230224162269e-20
22,0.8947474569176207,0.0,0.93122540348341409,0.0,0.93122540348341409,0.0,0.48334611670263233,8.6529185001087176e-40
24,0.8910003836282866,0.0,0.92015376031808704,0.0,0.92015376031808704,0.0,0.45516224907367475,2.3331785824648734e-34
26,0.88552989317900577,0.0,0.90799018850226021,0.0,0.90799018850226021,0.0,0.54181258594411918,1.1066172392606401e-48
28,0.88189932896240242,0.0,0.89579642714972596,0.0,0.89579642714972596,0.0,0.52966477284764535,6.4943067105423039e-46
30,0.8758574851547497,0.0,0.87052165939398063,0.0,0.87052165939398063,0.0,0.53302232895192836,1.2243793892997315e-45
32,0.86729653876155599,0.0,0.84410046365783231,0.0,0.84410046365783231,0.0,0.84410046365783231,0.0
34,0.8617247968299383,0.0,0.79764366357332606,0.0,0.79764366357332606,0.0,0.79764366357332606,0.0
36,0.85050592717262108,0.0,0.74387111640441461,0.0,0.74387111640441461,0.0,0.74387111640441461,0.0
38,0.84143100285823691,0.0,0.70153625350349191,0.0,0.70153625350349191,0.0,0.70153625350349191,0.0
40,0.83327301195090886,0.0,0.66554915825950023,7.9509557863332028e-310,0.66554915825950023,7.9509557863332028e-310,0.66554915825950023,7.9509557863332028e-310
42,0.81561799637514598,0.0,0.85249555288230627,0.0,0.85249555288230627,0.0,0.85249555288230627,0.0
44,0.81128685117946431,0.0,0.8355960075332316,0.0,0.8355960075332316,0.0,0.8355960075332316,0.0
46,0.80614595583704329,0.0,0.82714948544915856,0.0,0.82714948544915856,0.0,0.82714948544915856,0.0
48,0.80274193436057484,0.0,0.64492998521652978,0.0,0.80865238678567264,0.0,0.80865238678567264,0.0
0,0.99999999999999978,0.0,1.0,0.0,1.0,0.0,1.0,5.4543296811399257e-198
2,0.97835472612043461,0.0,0.80661445728935366,0.0,0.80661445728935366,0.0,0.76478505805620811,1.7089458297846409e-113
4,0.954952220457432,0.0,0.96197348789594184,0.0,0.96197348789594184,0.0,0.58940315646782215,5.453232270991382e-67
6,0.94787404109340567,0.0,0.95494133192642361,0.0,0.95494133192642361,0.0,0.48730961336791745,4.4196758875869784e-45
8,0.94217072219266484,0.0,0.93904848276396435,0.0,0.93904848276396435,0.0,0.45315898844358282,1.0259084106835952e-38
10,0.93647419916454266,0.0,0.9202261562759515,0.0,0.9202261562759515,0.0,0.3933248355362598,1.6152299753447132e-28
12,0.93325143089488427,0.0,0.90231493452692846,0.0,0.90231493452692846,0.0,0.38914444770463724,3.9515673729142119e-27
14,0.927242771331245,0.0,0.85194141831617853,0.0,0.85194141831617853,0.0,0.34188787105448104,1.6778701258889934e-20
16,0.92183448785711108,0.0,0.8312572017203318,0.0,0.8312572017203318,0.0,0.28976847310681653,9.5430095879072566e-15
18,0.91604127186521866,0.0,0.78830300824018407,0.0,0.78830300824018407,0.0,0.33610669179204083,2.5857592200497382e-20
20,0.90581040710358829,0.0,0.72972241427805662,0.0,0.72972241427805662,0.0,0.3347299668179024,8.9820405028717123e-20
22,0.89554863869361823,0.0,0.66695053968073348,0.0,0.66695053968073348,0.0,0.34360431268221853,1.6193419791939441e-20
24,0.886865016600347,0.0,0.9044581002258899,0.0,0.9044581002258899,0.0,0.36818335980710115,1.1882293172313024e-22
26,0.88295016800817239,0.0,0.89907729536749947,0.0,0.89907729536749947,0.0,0.40992608474858627,2.3748819705625697e-28
28,0.87938111121843032,0.0,0.87482730665654174,0.0,0.87482730665654174,0.0,0.33749208033647149,1.4406500188659943e-19
30,0.87191422948810993,0.0,0.84205616449949305,0.0,0.84205616449949305,0.0,0.84205616449949305,0.0
32,0.8668310103375384,0.0,0.81069388117670949,0.0,0.81069388117670949,0.0,0.81069388117670949,0.0
34,0.8575859242582079,0.0,0.75901503879423149,0.0,0.75901503879423149,0.0,0.75901503879423149,0.0
36,0.85015952640480597,0.0,0.72717319924841117,0.0,0.72717319924841117,0.0,0.72717319924841117,0.0
38,0.84315166872954084,0.0,0.69958320676198638,0.0,0.69958320676198638,0.0,0.69958320676198638,0.0
40,0.83783341636743291,0.0,0.67552419706526101,0.0,0.67552419706526101,0.0,0.67552419706526101,0.0
42,0.83201699392124429,0.0,0.64735461157449758,1.3234919658974969e-283,0.64735461157449758,1.3234919658974969e-283,0.64735461157449758,1.3234919658974969e-283
44,0.81952579655154834,0.0,0.61658287433308845,8.1326308225282586e-248,0.61658287433308845,8.1326308225282586e-248,0.61658287433308845,8.1326308225282586e-248
46,0.81508444887693632,0.0,0.80810365320971178,0.0,0.80810365320971178,0.0,0.80810365320971178,0.0
48,0.80686810146940335,0.0,0.61976249276152484,0.0,0.76188025758574973,0.0,0.76188025758574973,0.0
0,0.99999999999999978,0.0,1.0,0.0,1.0,0.0,1.0,5.4543296811399257e-198
2,0.97150488025593096,0.0,0.74123005676785814,0.0,0.74123005676785814,0.0,0.89193822634810283,1.9805100061155687e-154
4,0.95737198975526983,0.0,0.96944567137603654,0.0,0.96944567137603654,0.0,0.7078089170766797,2.7664228963811684e-95
6,0.95316574243107,0.0,0.95882496631509651,0.0,0.95882496631509651,0.0,0.49924357800509478,5.5279794932064614e-47
8,0.94725774723374911,0.0,0.94631053519176744,0.0,0.94631053519176744,0.0,0.40205779386481932,4.0234287273524873e-30
10,0.94231801095514833,0.0,0.94532878474511994,0.0,0.94532878474511994,0.0,0.43929078791029447,8.8843889204463425e-35
12,0.93604026060109369,0.0,0.91599179576162915,0.0,0.91599179576162915,0.0,0.49687742716267758,6.409659173925798e-43
14,0.93166179210376132,0.0,0.89770147422823332,0.0,0.89770147422823332,0.0,0.44146613628704956,7.3482457682051173e-34
16,0.92446169855423088,0.0,0.86901952534205307,0.0,0.86901952534205307,0.0,0.41911494876747601,1.6389748255869995e-30
18,0.91781519864234251,0.0,0.80878843111393739,0.0,0.80878843111393739,0.0,0.4176374248533351,1.5499168048915704e-29
20,0.91297712256190822,0.0,0.76505754315802221,0.0,0.76505754315802221,0.0,0.42463700611631988,7.4083207738038288e-30
22,0.90015678969826862,0.0,0.69181862708564623,0.0,0.69181862708564623,0.0,0.41935103178015359,2.7653302554321505e-30
24,0.88530859646538884,0.0,0.90570677872691852,0.0,0.90570677872691852,0.0,0.3448942164186598,1.5292251227852445e-20
26,0.88101199913233297,0.0,0.89504157186023425,0.0,0.89504157186023425,0.0,0.3349644963444306,6.5387368404159034e-19
28,0.87645594728653153,0.0,0.88145424678094764,0.0,0.88145424678094764,0.0,0.45808624793540081,1.4236206584704862e-34
30,0.87162510584611064,0.0,0.84904379506854277,0.0,0.84904379506854277,0.0,0.84904379506854277,0.0
32,0.86468329791898435,0.0,0.82515766493253051,0.0,0.82515766493253051,0.0,0.82515766493253051,0.0
34,0.85866048344752566,0.0,0.79863881486612398,0.0,0.79863881486612398,0.0,0.79863881486612398,0.0
36,0.8476798435686016,0.0,0.7505294922332163,0.0,0.7505294922332163,0.0,0.7505294922332163,0.0
38,0.83623928974002371,0.0,0.68643534678246698,0.0,0.68643534678246698,0.0,0.68643534678246698,0.0
40,0.83208405627260795,0.0,0.64207422782725965,4.1262244773134462e-289,0.64207422782725965,4.1262244773134462e-289,0.64207422782725965,4.1262244773134462e-289
42,0.81130474671064823,0.0,0.59609695379407723,8.4927576727943587e-241,0.59609695379407723,8.4927576727943587e-241,0.59609695379407723,8.4927576727943587e-241
44,0.80093162254846184,0.0,0.81204056901812827,0.0,0.81204056901812827,0.0,0.81204056901812827,0.0
46,0.79630404222453988,0.0,0.79992430786991631,0.0,0.79992430786991631,0.0,0.79992430786991631,0.0
48,0.79051513484597979,0.0,0.59674994925810843,1.3238822821132248e-294,0.76852863769766044,0.0,0.76852863769766044,0.0
0,0.99999999999999978,0.0,1.0,0.0,1.0,0.0,1.0,5.4543296811399257e-198
2,0.97106076346502879,0.0,0.73802128013583101,0.0,0.73802128013583101,0.0,0.63005885705356512,4.9152031990127153e-78
4,0.95658864792410092,0.0,0.96305972168323073,0.0,0.96305972168323073,0.0,0.52672048479531763,1.3573677025402378e-53
6,0.95100127570204018,0.0,0.95407987887050671,0.0,0.95407987887050671,0.0,0.48936273290303156,2.4955779902176434e-45
8,0.94494099365602735,0.0,0.93441632306539069,0.0,0.93441632306539069,0.0,0.39696417720382066,1.2252827205627955e-29
10,0.93966457419160732,0.0,0.91375552536648319,0.0,0.91375552536648319,0.0,0.39098148418099138,6.7377087441708322e-28
12,0.93150393615136728,0.0,0.87942301774448706,0.0,0.87942301774448706,0.0,0.31145819392245166,1.0314500482408224e-17
14,0.92266168778756585,0.0,0.83565512968443634,0.0,0.83565512968443634,0.0,0.34610520388829119,3.3004674534880404e-21
16,0.91710294363126932,0.0,0.80758905969503736,0.0,0.80758905969503736,0.0,0.31251620470221997,2.7249245256428216e-17
18,0.91137259449305097,0.0,0.77685182981595613,0.0,0.77685182981595613,0.0,0.26419103037257824,1.5199805828032506e-12
20,0.90070097712074593,0.0,0.69172486403228828,0.0,0.69172486403228828,0.0,0.32682830752628328,3.901793614899784e-19
22,0.88728699911508446,0.0,0.88461492917006435,0.0,0.88461492917006435,0.0,0.3591088591190868,3.3628636980938966e-22
24,0.88472060356121196,0.0,0.87845177502789951,0.0,0.87845177502789951,0.0,0.36652294018597747,1.3542010945113157e-22
26,0.87981510139512831,0.0,0.85390561890277084,0.0,0.85390561890277084,0.0,0.42697759161164195,1.286659643718068e-30
28,0.87567519308277941,0.0,0.83202603861266222,0.0,0.83202603861266222,0.0,0.42770135181862767,4.3805917331617405e-30
30,0.87001659763912997,0.0,0.7965759393950872,0.0,0.7965759393950872,0.0,0.7965759393950872,0.0
32,0.86120363513445031,0.0,0.73806483138185575,0.0,0.73806483138185575,0.0,0.73806483138185575,0.0
34,0.85241909657863457,0.0,0.70660476345378676,0.0,0.70660476345378676,0.0,0.70660476345378676,0.0
36,0.84462945598410066,0.0,0.68222704675938628,0.0,0.68222704675938628,0.0,0.68222704675938628,0.0
38,0.83814976992223522,0.0,0.64565440865580004,8.0060227507040276e-298,0.64565440865580004,8.0060227507040276e-298,0.64565440865580004,8.0060227507040276e-298
40,0.82768069754292983,0.0,0.62008601184386059,1.0209671682746449e-264,0.62008601184386059,1.0209671682746449e-264,0.62008601184386059,1.0209671682746449e-264
42,0.81697359657461732,0.0,0.60554949844957162,3.1622002550123508e-243,0.60554949844957162,3.1622002550123508e-243,0.60554949844957162,3.1622002550123508e-243
